Test Setup Parameters
DMM Model: SDM3055
PSU Model: DP832
PSU Channel: 1
Load: open
voltMin: 0.000
voltMax: 32.000
voltStep: 0.001
currentLimit: 0.020
overCurrentLimit: 0.020
dmmMeasureMode: average
dmmMeasureCount: 10
cmdDelay: 0.01
measDelay: 1
startTime: 2018-04-15 16:36:36.184772
endTime: 2018-04-17 03:41:47.075619
elapsedTime: 1 day, 11:05:10.890847
DP832 Initial System Temp: 28.90C
DP832 Ending System Temp: 31.54C
Run Notes:
START DATA CAPTURE
SetVoltage,PsuMeasureVoltage,DmmAverageVoltage,DmmMinimumVoltage,DmmMaximumVoltage,DmmStandardDeviation
0.000,0.0033,-2.26405561E-03,-2.28388203E-03,-2.25466297E-03,+1.01740440E-05
0.001,0.0044,-1.23433184E-03,-1.24214598E-03,-1.22636097E-03,+3.65663606E-06
0.002,0.0055,-2.18445139E-04,-2.30151422E-04,-2.08880841E-04,+5.89702534E-06
0.003,0.0064,+8.31616294E-04,+8.14346074E-04,+8.48864123E-04,+1.15248881E-05
0.004,0.0075,+1.87724076E-03,+1.86962813E-03,+1.88171877E-03,+3.75823070E-06
0.005,0.0081,+2.41331538E-03,+2.40023584E-03,+2.42090935E-03,+7.72896349E-06
0.006,0.0089,+3.45471932E-03,+3.44204653E-03,+3.47040730E-03,+9.65199403E-06
0.007,0.0107,+5.00394159E-03,+4.98588025E-03,+5.01580833E-03,+1.24285369E-05
0.008,0.0112,+5.51748432E-03,+5.50428537E-03,+5.52954885E-03,+8.16097464E-06
0.009,0.0123,+6.54256962E-03,+6.53523686E-03,+6.54762604E-03,+3.99322120E-06
0.010,0.0132,+7.57708487E-03,+7.56432252E-03,+7.58473481E-03,+7.57847348E-06
0.011,0.0143,+8.61994416E-03,+8.61199194E-03,+8.62531404E-03,+3.93519689E-06
0.012,0.0152,+9.64903727E-03,+9.64070443E-03,+9.65749699E-03,+6.36303689E-06
0.013,0.0162,+1.06599347E-02,+1.06553858E-02,+1.06639313E-02,+3.24138756E-06
0.014,0.0174,+1.16887368E-02,+1.16836878E-02,+1.16935021E-02,+3.55267198E-06
0.015,0.0183,+1.27237110E-02,+1.27129600E-02,+1.27346038E-02,+6.64059833E-06
0.016,0.0196,+1.37381162E-02,+1.37357018E-02,+1.37417845E-02,+1.94298776E-06
0.017,0.0205,+1.47859424E-02,+1.47668399E-02,+1.48038209E-02,+1.09278433E-05
0.018,0.0215,+1.58453256E-02,+1.58389892E-02,+1.58517888E-02,+4.29058284E-06
0.019,0.0226,+1.68928047E-02,+1.68784862E-02,+1.69118848E-02,+1.20693321E-05
0.020,0.0236,+1.79227785E-02,+1.79106692E-02,+1.79296261E-02,+4.92288494E-06
0.021,0.0246,+1.89543867E-02,+1.89390458E-02,+1.89651302E-02,+9.85897748E-06
0.022,0.0256,+1.99922792E-02,+1.99787667E-02,+2.00051497E-02,+1.00066741E-05
0.023,0.0266,+2.10013406E-02,+2.09932988E-02,+2.10115094E-02,+4.78366711E-06
0.024,0.0272,+2.15058751E-02,+2.14961055E-02,+2.15126369E-02,+4.69111925E-06
0.025,0.0281,+2.25396477E-02,+2.25307887E-02,+2.25501188E-02,+5.18285212E-06
0.026,0.0292,+2.35564263E-02,+2.35420742E-02,+2.35687931E-02,+8.83627378E-06
0.027,0.0303,+2.45696598E-02,+2.45618680E-02,+2.45767947E-02,+4.55059479E-06
0.028,0.0313,+2.56377116E-02,+2.56341292E-02,+2.56414806E-02,+2.58716127E-06
0.029,0.0324,+2.66216813E-02,+2.66153001E-02,+2.66325778E-02,+4.51135379E-06
0.030,0.0333,+2.76563234E-02,+2.76447589E-02,+2.76619246E-02,+5.03449125E-06
0.031,0.0344,+2.86692434E-02,+2.86608956E-02,+2.86805243E-02,+5.98566857E-06
0.032,0.0354,+2.97249023E-02,+2.97157299E-02,+2.97341271E-02,+4.92592629E-06
0.033,0.0363,+3.07212313E-02,+3.07126484E-02,+3.07308217E-02,+5.83981241E-06
0.034,0.0374,+3.17518246E-02,+3.17393831E-02,+3.17633032E-02,+6.13321260E-06
0.035,0.0383,+3.27988335E-02,+3.27886572E-02,+3.28106368E-02,+7.26693583E-06
0.036,0.0396,+3.38220268E-02,+3.38131902E-02,+3.38294230E-02,+5.53066850E-06
0.037,0.0405,+3.48724316E-02,+3.48654869E-02,+3.48796673E-02,+4.82413985E-06
0.038,0.0416,+3.59097045E-02,+3.59006925E-02,+3.59180075E-02,+4.69368473E-06
0.039,0.0427,+3.69526123E-02,+3.69408613E-02,+3.69666472E-02,+8.21858909E-06
0.040,0.0431,+3.74523889E-02,+3.74433694E-02,+3.74614681E-02,+4.88146233E-06
0.041,0.0446,+3.90138249E-02,+3.90086603E-02,+3.90197807E-02,+3.32815748E-06
0.042,0.0456,+4.00618377E-02,+4.00565536E-02,+4.00661440E-02,+3.32019796E-06
0.043,0.0463,+4.05840603E-02,+4.05764141E-02,+4.05907811E-02,+4.62910323E-06
0.044,0.0472,+4.16263300E-02,+4.16146797E-02,+4.16361369E-02,+6.77070910E-06
0.045,0.0483,+4.26810411E-02,+4.26635432E-02,+4.26965313E-02,+1.15491088E-05
0.046,0.0493,+4.37057458E-02,+4.37006147E-02,+4.37096081E-02,+2.91177545E-06
0.047,0.0505,+4.47500268E-02,+4.47445524E-02,+4.47542175E-02,+2.84686148E-06
0.048,0.0515,+4.57903523E-02,+4.57819224E-02,+4.58020362E-02,+6.68053127E-06
0.049,0.0525,+4.68050635E-02,+4.67862670E-02,+4.68144039E-02,+7.69215314E-06
0.050,0.0535,+4.78377913E-02,+4.78297943E-02,+4.78485647E-02,+5.50971171E-06
0.051,0.0546,+4.88648208E-02,+4.88611563E-02,+4.88694406E-02,+2.96600814E-06
0.052,0.0556,+4.99326823E-02,+4.99249093E-02,+4.99433811E-02,+5.64962317E-06
0.053,0.0566,+5.09593461E-02,+5.09478749E-02,+5.09697426E-02,+7.74881004E-06
0.054,0.0576,+5.20133445E-02,+5.20059184E-02,+5.20223378E-02,+5.70722741E-06
0.055,0.0587,+5.30332502E-02,+5.30239956E-02,+5.30429526E-02,+6.78078359E-06
0.056,0.0598,+5.40815652E-02,+5.40753221E-02,+5.40865172E-02,+3.49752467E-06
0.057,0.0609,+5.51065647E-02,+5.50988476E-02,+5.51181404E-02,+7.74993509E-06
0.058,0.0619,+5.61352697E-02,+5.61272242E-02,+5.61489053E-02,+6.10394407E-06
0.059,0.0623,+5.66640638E-02,+5.66532046E-02,+5.66782815E-02,+7.20711173E-06
0.060,0.0633,+5.77044677E-02,+5.76946795E-02,+5.77121437E-02,+5.29051943E-06
0.061,0.0644,+5.87377888E-02,+5.87229441E-02,+5.87566039E-02,+1.00828307E-05
0.062,0.0655,+5.97753155E-02,+5.97649414E-02,+5.97841223E-02,+6.45371538E-06
0.063,0.0664,+6.08090919E-02,+6.08019756E-02,+6.08186935E-02,+4.99465800E-06
0.064,0.0675,+6.18679825E-02,+6.18609893E-02,+6.18789760E-02,+4.93852981E-06
0.065,0.0685,+6.28998482E-02,+6.28870150E-02,+6.29088080E-02,+6.81222313E-06
0.066,0.0696,+6.39422970E-02,+6.39344605E-02,+6.39475960E-02,+3.80518026E-06
0.067,0.0707,+6.49488097E-02,+6.49413053E-02,+6.49622027E-02,+7.64117499E-06
0.068,0.0717,+6.59883665E-02,+6.59832280E-02,+6.59934528E-02,+3.31998158E-06
0.069,0.0727,+6.70464697E-02,+6.70397042E-02,+6.70547428E-02,+4.56264339E-06
0.070,0.0738,+6.80909560E-02,+6.80705437E-02,+6.81055842E-02,+1.19501219E-05
0.071,0.0748,+6.91143434E-02,+6.91037342E-02,+6.91284379E-02,+8.02059787E-06
0.072,0.0759,+7.01591879E-02,+7.01487168E-02,+7.01752864E-02,+7.35889363E-06
0.073,0.0769,+7.11876317E-02,+7.11820939E-02,+7.11926546E-02,+3.66549849E-06
0.074,0.0779,+7.22307671E-02,+7.22239046E-02,+7.22371521E-02,+4.11749844E-06
0.075,0.0789,+7.32584348E-02,+7.32493332E-02,+7.32662750E-02,+5.30490838E-06
0.076,0.0801,+7.42631899E-02,+7.42523344E-02,+7.42756201E-02,+6.21981667E-06
0.077,0.0810,+7.52703556E-02,+7.52666799E-02,+7.52750762E-02,+3.09226683E-06
0.078,0.0816,+7.58053779E-02,+7.57942650E-02,+7.58116546E-02,+5.05038045E-06
0.079,0.0826,+7.68219550E-02,+7.68159992E-02,+7.68319708E-02,+4.26523767E-06
0.080,0.0836,+7.78420995E-02,+7.78327330E-02,+7.78507943E-02,+5.48988479E-06
0.081,0.0847,+7.88813615E-02,+7.88661847E-02,+7.88945455E-02,+1.01921498E-05
0.082,0.0855,+7.98950017E-02,+7.98898968E-02,+7.99007186E-02,+3.84155875E-06
0.083,0.0866,+8.09317895E-02,+8.09254009E-02,+8.09375662E-02,+3.57080346E-06
0.084,0.0876,+8.19479001E-02,+8.19331040E-02,+8.19624724E-02,+1.01468138E-05
0.085,0.0887,+8.30007790E-02,+8.29915580E-02,+8.30112240E-02,+5.27437041E-06
0.086,0.0898,+8.40382161E-02,+8.40282190E-02,+8.40540422E-02,+9.65423365E-06
0.087,0.0908,+8.50611035E-02,+8.50489457E-02,+8.50718955E-02,+6.93040157E-06
0.088,0.0918,+8.60785500E-02,+8.60701202E-02,+8.60890771E-02,+6.00688116E-06
0.089,0.0928,+8.70945039E-02,+8.70794652E-02,+8.71108860E-02,+1.03973631E-05
0.090,0.0938,+8.81502748E-02,+8.81349712E-02,+8.81597122E-02,+7.50790573E-06
0.091,0.0948,+8.91846967E-02,+8.91775282E-02,+8.91914100E-02,+4.86667439E-06
0.092,0.0958,+9.01957360E-02,+9.01859030E-02,+9.02028822E-02,+4.72222793E-06
0.093,0.0968,+9.12353263E-02,+9.12245418E-02,+9.12409239E-02,+5.09313622E-06
0.094,0.0974,+9.17725876E-02,+9.17647026E-02,+9.17764947E-02,+3.78985401E-06
0.095,0.0984,+9.28166149E-02,+9.28011770E-02,+9.28427852E-02,+1.19322219E-05
0.096,0.1000,+9.43664380E-02,+9.43562057E-02,+9.43786705E-02,+8.49497788E-06
0.097,0.1006,+9.48785254E-02,+9.48595349E-02,+9.48984936E-02,+1.37559343E-05
0.098,0.1015,+9.58898482E-02,+9.58795152E-02,+9.58953002E-02,+5.92452875E-06
0.099,0.1025,+9.69450706E-02,+9.69271473E-02,+9.69565903E-02,+1.07348476E-05
0.100,0.1036,+9.79557404E-02,+9.79504116E-02,+9.79671295E-02,+4.92145781E-06
0.101,0.1047,+9.89781016E-02,+9.89722578E-02,+9.89834528E-02,+3.65202470E-06
0.102,0.1056,+1.00031813E-01,+1.00015710E-01,+1.00049557E-01,+1.30629221E-05
0.103,0.1068,+1.01065921E-01,+1.01051028E-01,+1.01083717E-01,+1.09183073E-05
0.104,0.1078,+1.02091678E-01,+1.02084330E-01,+1.02097615E-01,+3.22782647E-06
0.105,0.1088,+1.03108643E-01,+1.03104311E-01,+1.03113565E-01,+2.92714493E-06
0.106,0.1099,+1.04129836E-01,+1.04114589E-01,+1.04140300E-01,+7.81635629E-06
0.107,0.1109,+1.05149391E-01,+1.05139831E-01,+1.05163863E-01,+7.31176792E-06
0.108,0.1119,+1.06187903E-01,+1.06178731E-01,+1.06194702E-01,+5.91406848E-06
0.109,0.1129,+1.07201570E-01,+1.07193673E-01,+1.07212145E-01,+4.33724132E-06
0.110,0.1139,+1.08237193E-01,+1.08233469E-01,+1.08239253E-01,+2.00720131E-06
0.111,0.1148,+1.09279332E-01,+1.09268786E-01,+1.09288938E-01,+7.45578662E-06
0.112,0.1159,+1.10324169E-01,+1.10312948E-01,+1.10341160E-01,+1.05417053E-05
0.113,0.1165,+1.10847019E-01,+1.10841727E-01,+1.10853482E-01,+3.50427739E-06
0.114,0.1176,+1.11891050E-01,+1.11878575E-01,+1.11899845E-01,+6.38342230E-06
0.115,0.1185,+1.12917557E-01,+1.12909937E-01,+1.12923147E-01,+4.35689682E-06
0.116,0.1196,+1.13947419E-01,+1.13937492E-01,+1.13955367E-01,+4.83217290E-06
0.117,0.1207,+1.14969675E-01,+1.14947099E-01,+1.14984229E-01,+1.16045677E-05
0.118,0.1217,+1.16001004E-01,+1.15989768E-01,+1.16011337E-01,+6.38942810E-06
0.119,0.1228,+1.17037575E-01,+1.17032959E-01,+1.17042400E-01,+2.94609232E-06
0.120,0.1238,+1.18050980E-01,+1.18044954E-01,+1.18058686E-01,+4.38653467E-06
0.121,0.1248,+1.19076499E-01,+1.19074263E-01,+1.19081577E-01,+2.25903613E-06
0.122,0.1258,+1.20109838E-01,+1.20098125E-01,+1.20118611E-01,+6.26710094E-06
0.123,0.1268,+1.21119863E-01,+1.21106462E-01,+1.21131912E-01,+8.42605709E-06
0.124,0.1278,+1.22156415E-01,+1.22147489E-01,+1.22168536E-01,+5.76045832E-06
0.125,0.1290,+1.23187994E-01,+1.23181277E-01,+1.23195979E-01,+4.57087541E-06
0.126,0.1299,+1.24232361E-01,+1.24214355E-01,+1.24243276E-01,+7.79402012E-06
0.127,0.1310,+1.25272436E-01,+1.25262472E-01,+1.25282624E-01,+7.66607495E-06
0.128,0.1320,+1.26319288E-01,+1.26304208E-01,+1.26331114E-01,+7.88908505E-06
0.129,0.1330,+1.27362827E-01,+1.27358670E-01,+1.27368745E-01,+3.34576802E-06
0.130,0.1336,+1.27859039E-01,+1.27844497E-01,+1.27868678E-01,+7.33155232E-06
0.131,0.1350,+1.29412598E-01,+1.29405049E-01,+1.29418483E-01,+4.36983062E-06
0.132,0.1357,+1.29928943E-01,+1.29916438E-01,+1.29942672E-01,+8.12585708E-06
0.133,0.1366,+1.30957891E-01,+1.30944143E-01,+1.30970004E-01,+7.96390417E-06
0.134,0.1376,+1.31985152E-01,+1.31973602E-01,+1.31997037E-01,+7.64047890E-06
0.135,0.1388,+1.33030851E-01,+1.33023137E-01,+1.33041049E-01,+6.34117947E-06
0.136,0.1398,+1.34076874E-01,+1.34051924E-01,+1.34088756E-01,+1.17378683E-05
0.137,0.1408,+1.35113849E-01,+1.35098773E-01,+1.35131425E-01,+1.07642146E-05
0.138,0.1419,+1.36146677E-01,+1.36142935E-01,+1.36152562E-01,+3.33905315E-06
0.139,0.1429,+1.37157105E-01,+1.37150451E-01,+1.37164109E-01,+3.76914887E-06
0.140,0.1438,+1.38180970E-01,+1.38168678E-01,+1.38190918E-01,+7.75184688E-06
0.141,0.1449,+1.39241215E-01,+1.39233550E-01,+1.39250455E-01,+4.30870086E-06
0.142,0.1459,+1.40264673E-01,+1.40252038E-01,+1.40276518E-01,+8.34496375E-06
0.143,0.1470,+1.41330173E-01,+1.41322881E-01,+1.41339487E-01,+4.62960667E-06
0.144,0.1481,+1.42365192E-01,+1.42347862E-01,+1.42381223E-01,+1.08073784E-05
0.145,0.1491,+1.43372410E-01,+1.43360715E-01,+1.43388292E-01,+7.66402566E-06
0.146,0.1502,+1.44436894E-01,+1.44417825E-01,+1.44446708E-01,+1.03664993E-05
0.147,0.1512,+1.45457445E-01,+1.45452844E-01,+1.45461539E-01,+2.65390724E-06
0.148,0.1517,+1.45960140E-01,+1.45951397E-01,+1.45974720E-01,+7.04819682E-06
0.149,0.1527,+1.46984307E-01,+1.46976975E-01,+1.46995185E-01,+5.77714940E-06
0.150,0.1537,+1.48037343E-01,+1.48029495E-01,+1.48047818E-01,+5.77150210E-06
0.151,0.1547,+1.49071601E-01,+1.49062462E-01,+1.49080486E-01,+6.10554709E-06
0.152,0.1557,+1.50067918E-01,+1.50054678E-01,+1.50081770E-01,+6.77529409E-06
0.153,0.1568,+1.51111558E-01,+1.51108393E-01,+1.51118431E-01,+2.60046477E-06
0.154,0.1579,+1.52117843E-01,+1.52107215E-01,+1.52131471E-01,+7.66470965E-06
0.155,0.1589,+1.53140696E-01,+1.53119284E-01,+1.53159250E-01,+1.31060418E-05
0.156,0.1598,+1.54134738E-01,+1.54126913E-01,+1.54144340E-01,+5.40112464E-06
0.157,0.1608,+1.55175877E-01,+1.55162230E-01,+1.55187941E-01,+8.65631022E-06
0.158,0.1619,+1.56214072E-01,+1.56201914E-01,+1.56223931E-01,+6.62675011E-06
0.159,0.1630,+1.57227633E-01,+1.57216035E-01,+1.57240926E-01,+9.66255784E-06
0.160,0.1640,+1.58241740E-01,+1.58235792E-01,+1.58246726E-01,+3.70675183E-06
0.161,0.1651,+1.59328503E-01,+1.59319920E-01,+1.59340780E-01,+6.42803051E-06
0.162,0.1661,+1.60334056E-01,+1.60327548E-01,+1.60345983E-01,+6.15922283E-06
0.163,0.1671,+1.61369202E-01,+1.61355701E-01,+1.61382308E-01,+8.71091072E-06
0.164,0.1683,+1.62380103E-01,+1.62374637E-01,+1.62384600E-01,+3.28668896E-06
0.165,0.1692,+1.63407678E-01,+1.63395550E-01,+1.63423090E-01,+8.89978947E-06
0.166,0.1702,+1.64440357E-01,+1.64429748E-01,+1.64453220E-01,+7.44509285E-06
0.167,0.1707,+1.64958404E-01,+1.64951549E-01,+1.64965431E-01,+4.94858160E-06
0.168,0.1718,+1.66007805E-01,+1.65999815E-01,+1.66018399E-01,+5.24423863E-06
0.169,0.1728,+1.67053041E-01,+1.67043492E-01,+1.67061889E-01,+5.87434429E-06
0.170,0.1738,+1.68079563E-01,+1.68071607E-01,+1.68088698E-01,+5.05283310E-06
0.171,0.1747,+1.69119542E-01,+1.69113082E-01,+1.69125882E-01,+3.37548716E-06
0.172,0.1758,+1.70129902E-01,+1.70124480E-01,+1.70142466E-01,+4.63333159E-06
0.173,0.1769,+1.71167850E-01,+1.71160730E-01,+1.71171253E-01,+2.89077847E-06
0.174,0.1780,+1.72227909E-01,+1.72220565E-01,+1.72232879E-01,+3.74508605E-06
0.175,0.1790,+1.73233817E-01,+1.73225581E-01,+1.73243493E-01,+5.54257099E-06
0.176,0.1801,+1.74261063E-01,+1.74249666E-01,+1.74275228E-01,+8.46555786E-06
0.177,0.1810,+1.75313061E-01,+1.75295507E-01,+1.75321144E-01,+9.78332834E-06
0.178,0.1821,+1.76361775E-01,+1.76351834E-01,+1.76373739E-01,+6.80728943E-06
0.179,0.1831,+1.77361056E-01,+1.77349051E-01,+1.77371217E-01,+6.78423437E-06
0.180,0.1841,+1.78391298E-01,+1.78381122E-01,+1.78401870E-01,+6.70172943E-06
0.181,0.1851,+1.79422011E-01,+1.79412895E-01,+1.79431964E-01,+6.46712327E-06
0.182,0.1862,+1.80444253E-01,+1.80438099E-01,+1.80453474E-01,+4.20775703E-06
0.183,0.1872,+1.81477693E-01,+1.81465692E-01,+1.81491329E-01,+7.73618489E-06
0.184,0.1879,+1.82004569E-01,+1.82000666E-01,+1.82014063E-01,+4.00286646E-06
0.185,0.1888,+1.83034345E-01,+1.83027625E-01,+1.83042850E-01,+4.94158108E-06
0.186,0.1899,+1.84084220E-01,+1.84070368E-01,+1.84092721E-01,+7.32362418E-06
0.187,0.1909,+1.85112056E-01,+1.85101805E-01,+1.85120277E-01,+5.70185892E-06
0.188,0.1919,+1.86142925E-01,+1.86130704E-01,+1.86153094E-01,+8.09948835E-06
0.189,0.1929,+1.87185747E-01,+1.87178896E-01,+1.87190837E-01,+3.61589081E-06
0.190,0.1939,+1.88227043E-01,+1.88219400E-01,+1.88233805E-01,+4.48372774E-06
0.191,0.1950,+1.89242616E-01,+1.89236545E-01,+1.89248747E-01,+4.21419174E-06
0.192,0.1959,+1.90273948E-01,+1.90268280E-01,+1.90281490E-01,+4.19157573E-06
0.193,0.1970,+1.91300601E-01,+1.91287402E-01,+1.91313188E-01,+8.14054055E-06
0.194,0.1981,+1.92337101E-01,+1.92323690E-01,+1.92343505E-01,+5.08035773E-06
0.195,0.1991,+1.93384002E-01,+1.93371919E-01,+1.93402407E-01,+9.87492986E-06
0.196,0.2001,+1.94393642E-01,+1.94383018E-01,+1.94407535E-01,+8.13898394E-06
0.197,0.2011,+1.95459779E-01,+1.95443226E-01,+1.95468937E-01,+7.11231727E-06
0.198,0.2023,+1.96486884E-01,+1.96481491E-01,+1.96495187E-01,+4.64198452E-06
0.199,0.2032,+1.97514290E-01,+1.97500949E-01,+1.97522332E-01,+6.35533215E-06
0.200,0.2043,+1.98546820E-01,+1.98530931E-01,+1.98561194E-01,+1.08080822E-05
0.201,0.2053,+1.99623861E-01,+1.99610842E-01,+1.99631366E-01,+7.40212464E-06
0.202,0.2058,+2.00111764E-01,+2.00099431E-01,+2.00122007E-01,+6.97453591E-06
0.203,0.2070,+2.01121728E-01,+2.01111463E-01,+2.01130046E-01,+5.60978255E-06
0.204,0.2079,+2.02153400E-01,+2.02138011E-01,+2.02165215E-01,+8.14286979E-06
0.205,0.2091,+2.03192285E-01,+2.03186091E-01,+2.03199338E-01,+4.20114896E-06
0.206,0.2100,+2.04243093E-01,+2.04230028E-01,+2.04255254E-01,+8.58383117E-06
0.207,0.2111,+2.05243374E-01,+2.05232731E-01,+2.05257845E-01,+1.04327262E-05
0.208,0.2121,+2.06258249E-01,+2.06238755E-01,+2.06269690E-01,+9.10960160E-06
0.209,0.2130,+2.07288062E-01,+2.07280080E-01,+2.07293962E-01,+5.23408457E-06
0.210,0.2141,+2.08325809E-01,+2.08312450E-01,+2.08346893E-01,+1.17722445E-05
0.211,0.2151,+2.09339043E-01,+2.09325900E-01,+2.09353365E-01,+9.14949688E-06
0.212,0.2162,+2.10352358E-01,+2.10345470E-01,+2.10362710E-01,+5.62819060E-06
0.213,0.2172,+2.11367622E-01,+2.11349143E-01,+2.11386870E-01,+1.06526498E-05
0.214,0.2182,+2.12391491E-01,+2.12381064E-01,+2.12410433E-01,+8.80569390E-06
0.215,0.2193,+2.13443343E-01,+2.13433660E-01,+2.13452281E-01,+5.52007075E-06
0.216,0.2202,+2.14486654E-01,+2.14477672E-01,+2.14495323E-01,+4.62430685E-06
0.217,0.2213,+2.15515855E-01,+2.15505265E-01,+2.15525938E-01,+7.43029625E-06
0.218,0.2223,+2.16563286E-01,+2.16550210E-01,+2.16580213E-01,+9.34979664E-06
0.219,0.2228,+2.17104682E-01,+2.17083132E-01,+2.17117500E-01,+1.13966321E-05
0.220,0.2244,+2.18641418E-01,+2.18633346E-01,+2.18651893E-01,+5.40864878E-06
0.221,0.2249,+2.19158513E-01,+2.19148804E-01,+2.19167910E-01,+6.44524585E-06
0.222,0.2259,+2.20178430E-01,+2.20171657E-01,+2.20185502E-01,+3.94445006E-06
0.223,0.2270,+2.21214226E-01,+2.21203318E-01,+2.21220782E-01,+5.30744320E-06
0.224,0.2280,+2.22239042E-01,+2.22228709E-01,+2.22251323E-01,+6.59892618E-06
0.225,0.2291,+2.23283495E-01,+2.23277088E-01,+2.23292985E-01,+5.51993688E-06
0.226,0.2301,+2.24315536E-01,+2.24310278E-01,+2.24321100E-01,+3.27536391E-06
0.227,0.2312,+2.25347484E-01,+2.25338170E-01,+2.25356418E-01,+5.71069628E-06
0.228,0.2322,+2.26394687E-01,+2.26384943E-01,+2.26404012E-01,+5.56124145E-06
0.229,0.2331,+2.27427541E-01,+2.27420074E-01,+2.27436083E-01,+5.52330289E-06
0.230,0.2342,+2.28420187E-01,+2.28407552E-01,+2.28429755E-01,+7.14544765E-06
0.231,0.2352,+2.29471040E-01,+2.29458542E-01,+2.29480559E-01,+7.89166283E-06
0.232,0.2364,+2.30507809E-01,+2.30500540E-01,+2.30518750E-01,+5.18523209E-06
0.233,0.2374,+2.31537182E-01,+2.31521826E-01,+2.31560636E-01,+1.38400920E-05
0.234,0.2384,+2.32588717E-01,+2.32579534E-01,+2.32595692E-01,+4.59643914E-06
0.235,0.2394,+2.33627625E-01,+2.33610597E-01,+2.33636383E-01,+7.79326590E-06
0.236,0.2404,+2.34668644E-01,+2.34664461E-01,+2.34676403E-01,+3.65283853E-06
0.237,0.2416,+2.35694607E-01,+2.35687576E-01,+2.35703622E-01,+5.26992580E-06
0.238,0.2420,+2.36210250E-01,+2.36202921E-01,+2.36224565E-01,+7.43744249E-06
0.239,0.2431,+2.37255703E-01,+2.37244657E-01,+2.37268839E-01,+9.84269954E-06
0.240,0.2440,+2.38264410E-01,+2.38261167E-01,+2.38272213E-01,+3.52297062E-06
0.241,0.2450,+2.39304441E-01,+2.39298052E-01,+2.39315031E-01,+5.55969843E-06
0.242,0.2462,+2.40339804E-01,+2.40328090E-01,+2.40351757E-01,+5.94882380E-06
0.243,0.2472,+2.41363254E-01,+2.41351779E-01,+2.41370653E-01,+5.52257293E-06
0.244,0.2482,+2.42389729E-01,+2.42380861E-01,+2.42402731E-01,+7.24133768E-06
0.245,0.2492,+2.43394784E-01,+2.43385078E-01,+2.43403952E-01,+5.30057496E-06
0.246,0.2503,+2.44434172E-01,+2.44423447E-01,+2.44444717E-01,+7.47264356E-06
0.247,0.2512,+2.45463254E-01,+2.45458520E-01,+2.45471403E-01,+4.13126464E-06
0.248,0.2523,+2.46494583E-01,+2.46489100E-01,+2.46500784E-01,+4.23266756E-06
0.249,0.2533,+2.47533042E-01,+2.47523575E-01,+2.47542748E-01,+6.21121753E-06
0.250,0.2543,+2.48600771E-01,+2.48585012E-01,+2.48612574E-01,+9.62435219E-06
0.251,0.2554,+2.49644982E-01,+2.49636863E-01,+2.49656636E-01,+7.01884930E-06
