Test Setup Parameters
DMM Model: SDM3055
PSU Model: DP832
PSU Channel: 2
voltMin: 0.000
voltMax: 32.000
voltStep: 0.001
currentLimit: 1.000
overCurrentLimit: OFF
dmmMeasureMode: average
dmmMeasureCount: 10
cmdDelay: 0.01
measDelay: 1
startTime: 2018-03-24 01:06:07.348788
endTime: 2018-03-24 06:54:58.846738
elapsedTime: 5:48:51.497950
DP832 Initial System Temp: 28.32C
DP832 Ending System Temp: 27.48C
Run Notes:
START DATA CAPTURE
SetVoltage,PsuMeasureVoltage,DmmAverageVoltage,DmmMinimumVoltage,DmmMaximumVoltage,DmmStandardDeviation
0.000,0.0000,-9.48657854E-03,-9.49789300E-03,-9.47035319E-03,+8.52859821E-06
0.001,0.0000,-8.50101175E-03,-8.51567726E-03,-8.48623430E-03,+9.96274951E-06
0.002,0.0000,-7.44306155E-03,-7.45128990E-03,-7.42934762E-03,+5.51057592E-06
0.003,0.0000,-6.38061093E-03,-6.39070886E-03,-6.36510953E-03,+8.40787053E-06
0.004,0.0000,-5.36598181E-03,-5.37934869E-03,-5.34434552E-03,+9.67258324E-06
0.005,0.0008,-4.30036300E-03,-4.30977430E-03,-4.29253393E-03,+5.75288696E-06
0.006,0.0018,-3.29240612E-03,-3.30345190E-03,-3.28255448E-03,+5.58888213E-06
0.007,0.0028,-2.26805224E-03,-2.28332228E-03,-2.24589352E-03,+1.38391117E-05
0.008,0.0039,-1.24980339E-03,-1.25845342E-03,-1.23930990E-03,+6.51173086E-06
0.009,0.0049,-1.76277144E-04,-1.97909699E-04,-1.56861209E-04,+1.27100971E-05
0.010,0.0059,+8.47113965E-04,+8.19309210E-04,+8.65843271E-04,+1.39428150E-05
0.011,0.0069,+1.85677995E-03,+1.84309588E-03,+1.87052373E-03,+6.75013636E-06
0.012,0.0079,+2.89689272E-03,+2.88486925E-03,+2.91323002E-03,+9.24107369E-06
0.013,0.0089,+3.91499604E-03,+3.90171499E-03,+3.93197892E-03,+8.92403157E-06
0.014,0.0099,+4.95778069E-03,+4.94815296E-03,+4.96464699E-03,+5.83835765E-06
0.015,0.0110,+5.98505648E-03,+5.96805868E-03,+6.00563670E-03,+1.44749133E-05
0.016,0.0120,+6.96826112E-03,+6.94728907E-03,+6.98311321E-03,+1.32900243E-05
0.017,0.0130,+7.97507983E-03,+7.96775454E-03,+7.98581588E-03,+5.26233306E-06
0.018,0.0140,+9.02454420E-03,+9.00997572E-03,+9.03665723E-03,+8.22458078E-06
0.019,0.0151,+1.00413937E-02,+1.00224927E-02,+1.00662280E-02,+1.17238850E-05
0.020,0.0162,+1.10572542E-02,+1.10432194E-02,+1.10747894E-02,+9.01536505E-06
0.021,0.0172,+1.20848995E-02,+1.20737977E-02,+1.20986134E-02,+6.97988452E-06
0.022,0.0181,+1.31205454E-02,+1.31071748E-02,+1.31315800E-02,+8.22892848E-06
0.023,0.0192,+1.41567772E-02,+1.41492467E-02,+1.41698829E-02,+6.65242231E-06
0.024,0.0203,+1.51869190E-02,+1.51771755E-02,+1.51966176E-02,+7.03463826E-06
0.025,0.0213,+1.62211469E-02,+1.62143216E-02,+1.62296588E-02,+5.45439649E-06
0.026,0.0222,+1.72558375E-02,+1.72345632E-02,+1.72675886E-02,+1.07595493E-05
0.027,0.0233,+1.82624734E-02,+1.82415946E-02,+1.82822326E-02,+1.28785305E-05
0.028,0.0243,+1.92981268E-02,+1.92837038E-02,+1.93101615E-02,+9.05487979E-06
0.029,0.0254,+2.03219620E-02,+2.03006615E-02,+2.03337989E-02,+1.00439882E-05
0.030,0.0264,+2.13386137E-02,+2.13270604E-02,+2.13472115E-02,+5.72080687E-06
0.031,0.0276,+2.23860219E-02,+2.23783869E-02,+2.23958884E-02,+4.96154173E-06
0.032,0.0285,+2.34473791E-02,+2.34329972E-02,+2.34601265E-02,+7.46595869E-06
0.033,0.0295,+2.44834840E-02,+2.44720838E-02,+2.45044748E-02,+9.82204017E-06
0.034,0.0301,+2.50017623E-02,+2.49806746E-02,+2.50175062E-02,+1.16992864E-05
0.035,0.0316,+2.65488090E-02,+2.65338002E-02,+2.65618624E-02,+8.58712897E-06
0.036,0.0321,+2.70775994E-02,+2.70572057E-02,+2.70914626E-02,+9.25386528E-06
0.037,0.0330,+2.81160926E-02,+2.80953967E-02,+2.81443937E-02,+1.57630126E-05
0.038,0.0340,+2.91164219E-02,+2.90994428E-02,+2.91295201E-02,+8.07527479E-06
0.039,0.0352,+3.00982794E-02,+3.00885994E-02,+3.01166244E-02,+9.66133852E-06
0.040,0.0367,+3.16544799E-02,+3.16462031E-02,+3.16636673E-02,+5.02913203E-06
0.041,0.0373,+3.21906926E-02,+3.21771093E-02,+3.21992755E-02,+6.22596048E-06
0.042,0.0383,+3.32378844E-02,+3.32250400E-02,+3.32487734E-02,+7.19827232E-06
0.043,0.0393,+3.42709294E-02,+3.42642011E-02,+3.42793518E-02,+4.61233502E-06
0.044,0.0403,+3.52913687E-02,+3.52747777E-02,+3.53139976E-02,+1.34460103E-05
0.045,0.0414,+3.63084906E-02,+3.62908397E-02,+3.63195737E-02,+9.13704194E-06
0.046,0.0422,+3.73051032E-02,+3.72924229E-02,+3.73183208E-02,+7.08859881E-06
0.047,0.0433,+3.83253970E-02,+3.83162096E-02,+3.83380399E-02,+6.93602547E-06
0.048,0.0443,+3.93653344E-02,+3.93465640E-02,+3.93804477E-02,+1.16185153E-05
0.049,0.0453,+4.03902928E-02,+4.03604617E-02,+4.04104289E-02,+1.56057827E-05
0.050,0.0463,+4.14317937E-02,+4.14152960E-02,+4.14466421E-02,+1.17616338E-05
0.051,0.0474,+4.24663650E-02,+4.24448294E-02,+4.24778175E-02,+1.09523208E-05
0.052,0.0485,+4.34884948E-02,+4.34745495E-02,+4.35038805E-02,+1.00212977E-05
0.053,0.0494,+4.45031911E-02,+4.44940074E-02,+4.45066578E-02,+4.37602092E-06
0.054,0.0505,+4.55474460E-02,+4.55318998E-02,+4.55577604E-02,+7.75777257E-06
0.055,0.0516,+4.65809947E-02,+4.65650903E-02,+4.65903911E-02,+8.22299924E-06
0.056,0.0528,+4.76292090E-02,+4.76081325E-02,+4.76371276E-02,+8.40466674E-06
0.057,0.0535,+4.86570483E-02,+4.86518090E-02,+4.86655416E-02,+4.04043692E-06
0.058,0.0546,+4.96680875E-02,+4.96595867E-02,+4.96807080E-02,+7.72502670E-06
0.059,0.0556,+5.07195670E-02,+5.07069576E-02,+5.07415876E-02,+1.01382904E-05
0.060,0.0567,+5.17506901E-02,+5.17145861E-02,+5.17808235E-02,+2.06935840E-05
0.061,0.0578,+5.27821305E-02,+5.27727789E-02,+5.27919970E-02,+5.57331761E-06
0.062,0.0589,+5.38066336E-02,+5.37991777E-02,+5.38119028E-02,+3.42903910E-06
0.063,0.0598,+5.48357603E-02,+5.48150905E-02,+5.48522208E-02,+1.13573567E-05
0.064,0.0609,+5.58690292E-02,+5.58608195E-02,+5.58772389E-02,+5.22379368E-06
0.065,0.0617,+5.69114631E-02,+5.68979656E-02,+5.69231171E-02,+7.82886832E-06
0.066,0.0629,+5.79929863E-02,+5.79812352E-02,+5.80048568E-02,+6.47997446E-06
0.067,0.0639,+5.90286248E-02,+5.90102089E-02,+5.90443538E-02,+1.03293475E-05
0.068,0.0651,+6.00471237E-02,+6.00338837E-02,+6.00620952E-02,+9.33018438E-06
0.069,0.0660,+6.11037641E-02,+6.10899867E-02,+6.11171906E-02,+9.72886939E-06
0.070,0.0671,+6.21231921E-02,+6.21061234E-02,+6.21414997E-02,+1.13303346E-05
0.071,0.0682,+6.31982409E-02,+6.31819670E-02,+6.32111115E-02,+8.74928315E-06
0.072,0.0692,+6.41943795E-02,+6.41742583E-02,+6.42315396E-02,+1.88434576E-05
0.073,0.0701,+6.52465941E-02,+6.52338691E-02,+6.52726413E-02,+1.27324714E-05
0.074,0.0712,+6.62589059E-02,+6.62515731E-02,+6.62753813E-02,+6.96344570E-06
0.075,0.0722,+6.72931599E-02,+6.72817037E-02,+6.73049520E-02,+6.25784087E-06
0.076,0.0733,+6.83249287E-02,+6.83141478E-02,+6.83409040E-02,+8.62208018E-06
0.077,0.0743,+6.93578766E-02,+6.93475622E-02,+6.93791696E-02,+9.82896997E-06
0.078,0.0753,+7.03875519E-02,+7.03726923E-02,+7.04032175E-02,+8.42759952E-06
0.079,0.0763,+7.14128312E-02,+7.14070396E-02,+7.14209588E-02,+4.36928048E-06
0.080,0.0774,+7.24387673E-02,+7.24278036E-02,+7.24456038E-02,+5.55433585E-06
0.081,0.0784,+7.34851232E-02,+7.34737565E-02,+7.34972288E-02,+7.56227135E-06
0.082,0.0795,+7.45431294E-02,+7.45262771E-02,+7.45542647E-02,+9.23780923E-06
0.083,0.0804,+7.55540641E-02,+7.55350251E-02,+7.55663712E-02,+1.10408300E-05
0.084,0.0815,+7.65851649E-02,+7.65672080E-02,+7.65979944E-02,+1.07082182E-05
0.085,0.0825,+7.75955026E-02,+7.75799489E-02,+7.76149521E-02,+1.30682145E-05
0.086,0.0837,+7.86283759E-02,+7.86074300E-02,+7.86427317E-02,+1.05973306E-05
0.087,0.0845,+7.96325451E-02,+7.96170736E-02,+7.96486809E-02,+8.80879389E-06
0.088,0.0856,+8.06498088E-02,+8.06327252E-02,+8.06624667E-02,+8.06364019E-06
0.089,0.0867,+8.17026317E-02,+8.16889028E-02,+8.17105466E-02,+6.43823559E-06
0.090,0.0877,+8.27711948E-02,+8.27631045E-02,+8.27807180E-02,+5.01476822E-06
0.091,0.0888,+8.37969667E-02,+8.37909960E-02,+8.38017433E-02,+3.30981377E-06
0.092,0.0897,+8.48108271E-02,+8.48067223E-02,+8.48188129E-02,+3.45304546E-06
0.093,0.0907,+8.58137873E-02,+8.57998718E-02,+8.58245755E-02,+7.03784448E-06
0.094,0.0917,+8.68589042E-02,+8.68409362E-02,+8.68799322E-02,+1.00411798E-05
0.095,0.0928,+8.79124286E-02,+8.79006589E-02,+8.79290943E-02,+1.14200681E-05
0.096,0.0939,+8.89127804E-02,+8.88885468E-02,+8.89315731E-02,+1.51994091E-05
0.097,0.0949,+8.99551918E-02,+8.99416645E-02,+8.99699133E-02,+8.53355156E-06
0.098,0.0955,+9.04660739E-02,+9.04495836E-02,+9.04801087E-02,+8.77045758E-06
0.099,0.0970,+9.20628117E-02,+9.20397275E-02,+9.20850301E-02,+1.34825917E-05
0.100,0.0980,+9.30859789E-02,+9.30719851E-02,+9.30969500E-02,+7.77795463E-06
0.101,0.0986,+9.35810274E-02,+9.35646789E-02,+9.35968087E-02,+9.38228691E-06
0.102,0.1000,+9.51212227E-02,+9.51000790E-02,+9.51422843E-02,+1.35426316E-05
0.103,0.1006,+9.56235741E-02,+9.56114313E-02,+9.56362096E-02,+7.18100316E-06
0.104,0.1022,+9.72134494E-02,+9.71945969E-02,+9.72313913E-02,+1.24791652E-05
0.105,0.1027,+9.77091435E-02,+9.76943436E-02,+9.77288243E-02,+1.03266098E-05
0.106,0.1036,+9.87411883E-02,+9.87190632E-02,+9.87569024E-02,+1.23678678E-05
0.107,0.1048,+9.97810399E-02,+9.97708002E-02,+9.97943097E-02,+6.73322249E-06
0.108,0.1057,+1.00816813E-01,+1.00807237E-01,+1.00825000E-01,+4.66039604E-06
0.109,0.1069,+1.01799976E-01,+1.01789416E-01,+1.01814194E-01,+8.04751520E-06
0.110,0.1077,+1.02816460E-01,+1.02794693E-01,+1.02841041E-01,+1.24447507E-05
0.111,0.1088,+1.03808427E-01,+1.03800792E-01,+1.03816913E-01,+5.38387810E-06
0.112,0.1098,+1.04845927E-01,+1.04825996E-01,+1.04868127E-01,+1.24740717E-05
0.113,0.1108,+1.05865784E-01,+1.05855045E-01,+1.05876651E-01,+7.46483203E-06
0.114,0.1118,+1.06943942E-01,+1.06932045E-01,+1.06966601E-01,+9.08265063E-06
0.115,0.1130,+1.07969434E-01,+1.07961019E-01,+1.07980498E-01,+5.71381815E-06
0.116,0.1139,+1.09015469E-01,+1.09001076E-01,+1.09025108E-01,+7.55731366E-06
0.117,0.1150,+1.10025411E-01,+1.10015347E-01,+1.10035348E-01,+6.56256345E-06
0.118,0.1160,+1.11050280E-01,+1.11039432E-01,+1.11061262E-01,+7.51966676E-06
0.119,0.1171,+1.12043866E-01,+1.12028738E-01,+1.12060905E-01,+9.63939039E-06
0.120,0.1180,+1.13089416E-01,+1.13068869E-01,+1.13105402E-01,+1.05020164E-05
0.121,0.1192,+1.14120696E-01,+1.14114001E-01,+1.14129301E-01,+5.16071915E-06
0.122,0.1202,+1.15181818E-01,+1.15164618E-01,+1.15194136E-01,+9.04002984E-06
0.123,0.1212,+1.16208989E-01,+1.16198406E-01,+1.16218520E-01,+5.59449075E-06
0.124,0.1223,+1.17227913E-01,+1.17200736E-01,+1.17251860E-01,+1.79688637E-05
0.125,0.1233,+1.18248797E-01,+1.18242621E-01,+1.18257660E-01,+4.29361464E-06
0.126,0.1242,+1.19291757E-01,+1.19282715E-01,+1.19300515E-01,+5.46774796E-06
0.127,0.1254,+1.20291862E-01,+1.20283253E-01,+1.20298516E-01,+4.28448429E-06
0.128,0.1263,+1.21319272E-01,+1.21310995E-01,+1.21327415E-01,+4.46720734E-06
0.129,0.1273,+1.22380868E-01,+1.22363404E-01,+1.22400684E-01,+1.06684053E-05
0.130,0.1283,+1.23395240E-01,+1.23370921E-01,+1.23411969E-01,+1.37567905E-05
0.131,0.1294,+1.24414504E-01,+1.24390341E-01,+1.24441503E-01,+1.59928741E-05
0.132,0.1304,+1.25458494E-01,+1.25447676E-01,+1.25467192E-01,+6.35220331E-06
0.133,0.1316,+1.26468805E-01,+1.26460603E-01,+1.26480605E-01,+6.35876200E-06
0.134,0.1325,+1.27535271E-01,+1.27523050E-01,+1.27554508E-01,+9.18025746E-06
0.135,0.1334,+1.28556039E-01,+1.28543217E-01,+1.28567025E-01,+7.36602401E-06
0.136,0.1346,+1.29569914E-01,+1.29543009E-01,+1.29589991E-01,+1.77713758E-05
0.137,0.1355,+1.30624450E-01,+1.30609971E-01,+1.30636503E-01,+8.52311373E-06
0.138,0.1365,+1.31626295E-01,+1.31613532E-01,+1.31645438E-01,+9.23800208E-06
0.139,0.1377,+1.32669568E-01,+1.32651238E-01,+1.32683069E-01,+1.00677790E-05
0.140,0.1386,+1.33698400E-01,+1.33681891E-01,+1.33725813E-01,+1.53655126E-05
0.141,0.1398,+1.34706144E-01,+1.34697356E-01,+1.34715529E-01,+6.07815704E-06
0.142,0.1406,+1.35710907E-01,+1.35693789E-01,+1.35727449E-01,+1.02159643E-05
0.143,0.1417,+1.36755904E-01,+1.36748213E-01,+1.36767618E-01,+5.34593663E-06
0.144,0.1427,+1.37775235E-01,+1.37767335E-01,+1.37786591E-01,+5.81067283E-06
0.145,0.1437,+1.38765635E-01,+1.38755372E-01,+1.38776270E-01,+6.64872014E-06
0.146,0.1447,+1.39821204E-01,+1.39814909E-01,+1.39827447E-01,+3.86242636E-06
0.147,0.1458,+1.40862727E-01,+1.40842016E-01,+1.40874781E-01,+1.04925685E-05
0.148,0.1469,+1.41876241E-01,+1.41857370E-01,+1.41904016E-01,+1.43361360E-05
0.149,0.1478,+1.42888224E-01,+1.42882761E-01,+1.42891306E-01,+2.80572793E-06
0.150,0.1489,+1.43915746E-01,+1.43905652E-01,+1.43925281E-01,+5.92729686E-06
0.151,0.1500,+1.44937436E-01,+1.44917572E-01,+1.44954441E-01,+1.22932357E-05
0.152,0.1509,+1.45986210E-01,+1.45978899E-01,+1.45996438E-01,+5.80015228E-06
0.153,0.1520,+1.47040219E-01,+1.47021568E-01,+1.47059893E-01,+1.48044563E-05
0.154,0.1530,+1.48081280E-01,+1.48070544E-01,+1.48097524E-01,+8.08917945E-06
0.155,0.1539,+1.49143432E-01,+1.49126050E-01,+1.49158179E-01,+1.11005281E-05
0.156,0.1549,+1.50139835E-01,+1.50117259E-01,+1.50157561E-01,+1.22922162E-05
0.157,0.1561,+1.51166678E-01,+1.51143620E-01,+1.51188550E-01,+1.65428279E-05
0.158,0.1571,+1.52160388E-01,+1.52144271E-01,+1.52177818E-01,+1.14294444E-05
0.159,0.1582,+1.53156239E-01,+1.53142980E-01,+1.53170259E-01,+8.42162022E-06
0.160,0.1591,+1.54193146E-01,+1.54177104E-01,+1.54202591E-01,+7.86900760E-06
0.161,0.1604,+1.55232960E-01,+1.55224773E-01,+1.55243245E-01,+6.32823567E-06
0.162,0.1613,+1.56321096E-01,+1.56296885E-01,+1.56333045E-01,+9.82260069E-06
0.163,0.1622,+1.57358265E-01,+1.57342763E-01,+1.57376722E-01,+1.05190013E-05
0.164,0.1633,+1.58368252E-01,+1.58352407E-01,+1.58382223E-01,+1.00870067E-05
0.165,0.1639,+1.58908592E-01,+1.58889508E-01,+1.58939214E-01,+1.52667457E-05
0.166,0.1653,+1.60411933E-01,+1.60393487E-01,+1.60429461E-01,+1.51499452E-05
0.167,0.1658,+1.60903403E-01,+1.60891443E-01,+1.60914131E-01,+7.65544618E-06
0.168,0.1669,+1.61920136E-01,+1.61914744E-01,+1.61929372E-01,+4.45876516E-06
0.169,0.1684,+1.63460791E-01,+1.63453988E-01,+1.63474102E-01,+6.02811571E-06
0.170,0.1688,+1.63983226E-01,+1.63968699E-01,+1.63997806E-01,+9.73423879E-06
0.171,0.1704,+1.65533392E-01,+1.65510405E-01,+1.65554215E-01,+1.62258024E-05
0.172,0.1710,+1.66041327E-01,+1.66038065E-01,+1.66050118E-01,+4.02935827E-06
0.173,0.1720,+1.67076364E-01,+1.67053903E-01,+1.67097265E-01,+1.41341133E-05
0.174,0.1730,+1.68074525E-01,+1.68054255E-01,+1.68092430E-01,+1.26021330E-05
0.175,0.1741,+1.69081116E-01,+1.69071399E-01,+1.69091923E-01,+6.88648730E-06
0.176,0.1750,+1.70123905E-01,+1.70096828E-01,+1.70141123E-01,+1.17436091E-05
0.177,0.1759,+1.70959883E-01,+1.70948062E-01,+1.70981721E-01,+1.02898188E-05
0.178,0.1768,+1.71827630E-01,+1.71812319E-01,+1.71836761E-01,+7.17878858E-06
0.179,0.1777,+1.72683043E-01,+1.72674076E-01,+1.72690085E-01,+5.60078132E-06
0.180,0.1785,+1.73560973E-01,+1.73545349E-01,+1.73575053E-01,+7.61764003E-06
0.181,0.1797,+1.74808762E-01,+1.74785983E-01,+1.74833488E-01,+1.80267091E-05
0.182,0.1810,+1.76048878E-01,+1.76026208E-01,+1.76076436E-01,+1.64430521E-05
0.183,0.1822,+1.77308992E-01,+1.77300017E-01,+1.77320952E-01,+6.69558158E-06
0.184,0.1835,+1.78551746E-01,+1.78530091E-01,+1.78567035E-01,+1.18301827E-05
0.185,0.1844,+1.79557102E-01,+1.79527495E-01,+1.79576268E-01,+1.47205347E-05
0.186,0.1855,+1.80581235E-01,+1.80547923E-01,+1.80594121E-01,+1.39397147E-05
0.187,0.1865,+1.81564261E-01,+1.81560029E-01,+1.81574098E-01,+4.48641275E-06
0.188,0.1876,+1.82616300E-01,+1.82606355E-01,+1.82627439E-01,+6.53709798E-06
0.189,0.1886,+1.83646487E-01,+1.83634396E-01,+1.83662010E-01,+8.92449254E-06
0.190,0.1896,+1.84678058E-01,+1.84654078E-01,+1.84695985E-01,+1.33702872E-05
0.191,0.1901,+1.85181006E-01,+1.85156959E-01,+1.85209389E-01,+1.67505608E-05
0.192,0.1913,+1.86212913E-01,+1.86202016E-01,+1.86220152E-01,+5.42530437E-06
0.193,0.1921,+1.87236946E-01,+1.87233677E-01,+1.87240804E-01,+2.16811735E-06
0.194,0.1933,+1.88261927E-01,+1.88235857E-01,+1.88288959E-01,+1.82156428E-05
0.195,0.1942,+1.89325392E-01,+1.89310619E-01,+1.89330956E-01,+5.87581502E-06
0.196,0.1953,+1.90375234E-01,+1.90364930E-01,+1.90385902E-01,+6.69319291E-06
0.197,0.1964,+1.91365282E-01,+1.91339496E-01,+1.91388493E-01,+1.99410640E-05
0.198,0.1975,+1.92377090E-01,+1.92366604E-01,+1.92382725E-01,+5.14168408E-06
0.199,0.1985,+1.93409116E-01,+1.93393600E-01,+1.93426215E-01,+9.12874311E-06
0.200,0.1994,+1.94436840E-01,+1.94417797E-01,+1.94454741E-01,+1.16816046E-05
0.201,0.2005,+1.95506821E-01,+1.95483304E-01,+1.95526144E-01,+1.50474577E-05
0.202,0.2015,+1.96539336E-01,+1.96521980E-01,+1.96568999E-01,+1.51267494E-05
0.203,0.2025,+1.97587991E-01,+1.97578232E-01,+1.97595361E-01,+4.63552917E-06
0.204,0.2036,+1.98645198E-01,+1.98629671E-01,+1.98668779E-01,+1.17801602E-05
0.205,0.2041,+1.99120420E-01,+1.99110684E-01,+1.99129940E-01,+5.27270659E-06
0.206,0.2051,+2.00183065E-01,+2.00172870E-01,+2.00190931E-01,+5.18198057E-06
0.207,0.2062,+2.01203657E-01,+2.01196246E-01,+2.01220092E-01,+7.64461475E-06
0.208,0.2072,+2.02245289E-01,+2.02226750E-01,+2.02255484E-01,+8.53152033E-06
0.209,0.2082,+2.03275285E-01,+2.03259493E-01,+2.03296362E-01,+1.19698085E-05
0.210,0.2092,+2.04301330E-01,+2.04294400E-01,+2.04309513E-01,+5.05132537E-06
0.211,0.2102,+2.05304521E-01,+2.05282698E-01,+2.05316395E-01,+1.14410658E-05
0.212,0.2113,+2.06347586E-01,+2.06337719E-01,+2.06356377E-01,+7.17052389E-06
0.213,0.2123,+2.07359155E-01,+2.07349340E-01,+2.07371283E-01,+6.51081531E-06
0.214,0.2133,+2.08394237E-01,+2.08386225E-01,+2.08403764E-01,+5.30077394E-06
0.215,0.2144,+2.09425420E-01,+2.09413893E-01,+2.09438970E-01,+7.54928310E-06
0.216,0.2154,+2.10449975E-01,+2.10443165E-01,+2.10458614E-01,+5.61845968E-06
0.217,0.2164,+2.11502948E-01,+2.11491767E-01,+2.11520464E-01,+9.50618466E-06
0.218,0.2173,+2.12501545E-01,+2.12480066E-01,+2.12519771E-01,+1.44684079E-05
0.219,0.2181,+2.13037467E-01,+2.13028847E-01,+2.13042915E-01,+4.51030360E-06
0.220,0.2190,+2.14064265E-01,+2.14044984E-01,+2.14083308E-01,+1.15355676E-05
0.221,0.2202,+2.15048962E-01,+2.15033133E-01,+2.15074629E-01,+1.37264573E-05
0.222,0.2210,+2.16079392E-01,+2.16069719E-01,+2.16088974E-01,+5.75339459E-06
0.223,0.2220,+2.17113869E-01,+2.17101081E-01,+2.17127651E-01,+7.54730208E-06
0.224,0.2231,+2.18135731E-01,+2.18121770E-01,+2.18150168E-01,+9.30047541E-06
0.225,0.2241,+2.19191322E-01,+2.19176978E-01,+2.19202241E-01,+8.22622379E-06
0.226,0.2250,+2.20244739E-01,+2.20234350E-01,+2.20255434E-01,+7.76703105E-06
0.227,0.2263,+2.21277410E-01,+2.21266234E-01,+2.21292953E-01,+9.36512493E-06
0.228,0.2273,+2.22312433E-01,+2.22302298E-01,+2.22327673E-01,+7.54800538E-06
0.229,0.2283,+2.23354337E-01,+2.23328324E-01,+2.23372171E-01,+1.39911306E-05
0.230,0.2294,+2.24394868E-01,+2.24384165E-01,+2.24411892E-01,+7.93992341E-06
0.231,0.2304,+2.25451299E-01,+2.25436164E-01,+2.25475048E-01,+1.39815602E-05
0.232,0.2314,+2.26479306E-01,+2.26472451E-01,+2.26490550E-01,+6.10273220E-06
0.233,0.2319,+2.26967668E-01,+2.26955480E-01,+2.26982684E-01,+9.42778316E-06
0.234,0.2329,+2.27979938E-01,+2.27963183E-01,+2.27989529E-01,+9.23406704E-06
0.235,0.2339,+2.28997986E-01,+2.28984246E-01,+2.29018279E-01,+1.14515536E-05
0.236,0.2350,+2.30015503E-01,+2.29996502E-01,+2.30037737E-01,+1.39655422E-05
0.237,0.2361,+2.31082301E-01,+2.31072532E-01,+2.31092869E-01,+6.88488174E-06
0.238,0.2371,+2.32139625E-01,+2.32128784E-01,+2.32148711E-01,+7.15442753E-06
0.239,0.2381,+2.33134021E-01,+2.33122456E-01,+2.33159325E-01,+1.12320425E-05
0.240,0.2392,+2.34162528E-01,+2.34147885E-01,+2.34186097E-01,+1.17197390E-05
0.241,0.2400,+2.35197980E-01,+2.35176336E-01,+2.35224325E-01,+1.54089686E-05
0.242,0.2412,+2.36238331E-01,+2.36222214E-01,+2.36250761E-01,+9.07027826E-06
0.243,0.2421,+2.37280052E-01,+2.37256076E-01,+2.37293692E-01,+1.39461388E-05
0.244,0.2432,+2.38304343E-01,+2.38288446E-01,+2.38313709E-01,+7.67192085E-06
0.245,0.2442,+2.39300164E-01,+2.39286857E-01,+2.39316039E-01,+1.07953498E-05
0.246,0.2453,+2.40339624E-01,+2.40331685E-01,+2.40346065E-01,+4.89941889E-06
0.247,0.2458,+2.40866748E-01,+2.40854165E-01,+2.40877233E-01,+5.90878193E-06
0.248,0.2469,+2.41858921E-01,+2.41849993E-01,+2.41869766E-01,+7.59889232E-06
0.249,0.2479,+2.42897619E-01,+2.42888062E-01,+2.42907236E-01,+6.52034359E-06
0.250,0.2489,+2.43915946E-01,+2.43891979E-01,+2.43932423E-01,+1.36442156E-05
0.251,0.2498,+2.44947185E-01,+2.44932146E-01,+2.44965400E-01,+1.03066692E-05
